N = 10000. R = 10. T = 4000
p1 = 0. p2 = 1q1 = 0.05. q2 = 1. h1 = 0. h2 = 0.08. Omega = 0.38

// solution (optimal) with objective 1
// Quality Primal objective                               1.0000000000e+00
// Primal norm |x| (Total, Max)                   2.21539e+01  3.13072e+00
// Primal error (Ax=b) (Total, Max)               2.32414e-14  1.50212e-14
// Primal error (x'Qx+dx=f) (Total, Max)          2.49599e-18  2.49599e-18
// Primal x bound error (Total, Max)              0.00000e+00  0.00000e+00
// Primal slack bound error (Total, Max)          9.76477e-09  9.76477e-09
// Primal quad. slack bound error (Total, Max)    0.00000e+00  0.00000e+00
// Primal normalized error (Ax=b) (Max)           3.28223e-17
// 

y_wbound_U = [0.000031046
         0.000031237 0.00003143 0.000031623 0.000031817 0.000032011 0.000032206
         0.000032402 0.000032599 0.000032796 0.000032993 0.000033192 0.000033391
         0.000033591 0.000033791 0.000033992 0.000034194 0.000034397 0.0000346
         0.000034803 0.000035008 0.000035213 0.000035418 0.000035624 0.000035831
         0.000036038 0.000036246 0.000036455 0.000036664 0.000036874 0.000037084
         0.000037295 0.000037507 0.000037719 0.000037932 0.000038145 0.000038359
         0.000038573 0.000038788 0.000039004 0.00003922 0.000039437 0.000039654
         0.000039872 0.00004009 0.000040309 0.000040528 0.000040748 0.000040968
         0.000041189 0.000041411 0.000041633 0.000041855 0.000042078 0.000042301
         0.000042525 0.00004275 0.000042975 0.0000432 0.000043426 0.000043652
         0.000043879 0.000044106 0.000044334 0.000044562 0.000044791 0.00004502
         0.000045249 0.000045479 0.000045709 0.00004594 0.000046171 0.000046403
         0.000046635 0.000046867 0.0000471 0.000047334 0.000047567 0.000047801
         0.000048036 0.000048271 0.000048506 0.000048741 0.000048977 0.000049214
         0.00004945 0.000049687 0.000049925 0.000050162 0.000050401 0.000050639
         0.000050878 0.000051117 0.000051356 0.000051596 0.000051836 0.000052076
         0.000052317 0.000052558 0.000052799 0.000053041 0.000053283 0.000053525
         0.000053767 0.00005401 0.000054253 0.000054496 0.00005474 0.000054983
         0.000055227 0.000055472 0.000055716 0.000055961 0.000056206 0.000056451
         0.000056697 0.000056942 0.000057188 0.000057434 0.00005768 0.000057927
         0.000058174 0.00005842 0.000058667 0.000058915 0.000059162 0.00005941
         0.000059657 0.000059905 0.000060153 0.000060402 0.00006065 0.000060899
         0.000061147 0.000061396 0.000061645 0.000061894 0.000062143 0.000062393
         0.000062642 0.000062892 0.000063141 0.000063391 0.000063641 0.000063891
         0.000064141 0.000064391 0.000064641 0.000064891 0.000065141 0.000065392
         0.000065642 0.000065892 0.000066143 0.000066393 0.000066644 0.000066894
         0.000067145 0.000067396 0.000067646 0.000067897 0.000068148 0.000068398
         0.000068649 0.0000689 0.00006915 0.000069401 0.000069651 0.000069902
         0.000070152 0.000070403 0.000070653 0.000070904 0.000071154 0.000071404
         0.000071655 0.000071905 0.000072155 0.000072405 0.000072655 0.000072905
         0.000073155 0.000073404 0.000073654 0.000073903 0.000074153 0.000074402
         0.000074651 0.0000749 0.000075149 0.000075398 0.000075646 0.000075895
         0.000076143 0.000076391 0.000076639 0.000076887 0.000077135 0.000077382
         0.00007763 0.000077877 0.000078124 0.000078371 0.000078617 0.000078864
         0.00007911 0.000079356 0.000079602 0.000079847 0.000080093 0.000080338
         0.000080583 0.000080827 0.000081072 0.000081316 0.00008156 0.000081803
         0.000082047 0.00008229 0.000082533 0.000082775 0.000083018 0.00008326
         0.000083502 0.000083743 0.000083984 0.000084225 0.000084466 0.000084706
         0.000084946 0.000085185 0.000085425 0.000085664 0.000085902 0.000086141
         0.000086379 0.000086616 0.000086854 0.000087091 0.000087327 0.000087563
         0.000087799 0.000088035 0.00008827 0.000088504 0.000088739 0.000088973
         0.000089206 0.000089439 0.000089672 0.000089904 0.000090136 0.000090368
         0.000090599 0.00009083 0.00009106 0.00009129 0.000091519 0.000091748
         0.000091977 0.000092205 0.000092432 0.000092659 0.000092886 0.000093112
         0.000093338 0.000093563 0.000093788 0.000094012 0.000094236 0.00009446
         0.000094682 0.000094905 0.000095127 0.000095348 0.000095569 0.000095789
         0.000096009 0.000096228 0.000096447 0.000096665 0.000096883 0.0000971
         0.000097317 0.000097533 0.000097748 0.000097963 0.000098178 0.000098391
         0.000098605 0.000098817 0.00009903 0.000099241 0.000099452 0.000099663
         0.000099872 0.00010008 0.00010029 0.0001005 0.00010071 0.00010091
         0.00010112 0.00010132 0.00010153 0.00010173 0.00010194 0.00010214
         0.00010234 0.00010255 0.00010275 0.00010295 0.00010315 0.00010335
         0.00010355 0.00010374 0.00010394 0.00010414 0.00010433 0.00010453
         0.00010472 0.00010492 0.00010511 0.0001053 0.0001055 0.00010569 0.00010588
         0.00010607 0.00010626 0.00010644 0.00010663 0.00010682 0.00010701
         0.00010719 0.00010738 0.00010756 0.00010774 0.00010793 0.00010811
         0.00010829 0.00010847 0.00010865 0.00010883 0.00010901 0.00010919
         0.00010936 0.00010954 0.00010972 0.00010989 0.00011006 0.00011024
         0.00011041 0.00011058 0.00011075 0.00011092 0.00011109 0.00011126
         0.00011143 0.00011159 0.00011176 0.00011193 0.00011209 0.00011225
         0.00011242 0.00011258 0.00011274 0.0001129 0.00011306 0.00011322 0.00011338
         0.00011354 0.00011369 0.00011385 0.000114 0.00011416 0.00011431 0.00011446
         0.00011462 0.00011477 0.00011492 0.00011507 0.00011521 0.00011536
         0.00011551 0.00011566 0.0001158 0.00011594 0.00011609 0.00011623 0.00011637
         0.00011651 0.00011665 0.00011679 0.00011693 0.00011707 0.0001172 0.00011734
         0.00011747 0.00011761 0.00011774 0.00011787 0.00011801 0.00011814
         0.00011827 0.00011839 0.00011852 0.00011865 0.00011878 0.0001189 0.00011902
         0.00011915 0.00011927 0.00011939 0.00011951 0.00011963 0.00011975
         0.00011987 0.00011999 0.0001201 0.00012022 0.00012033 0.00012045 0.00012056
         0.00012067 0.00012078 0.00012089 0.000121 0.00012111 0.00012122 0.00012133
         0.00012143 0.00012154 0.00012164 0.00012174 0.00012184 0.00012195
         0.00012205 0.00012215 0.00012224 0.00012234 0.00012244 0.00012253
         0.00012263 0.00012272 0.00012281 0.00012291 0.000123 0.00012309 0.00012318
         0.00012327 0.00012335 0.00012344 0.00012353 0.00012361 0.00012369
         0.00012378 0.00012386 0.00012394 0.00012402 0.0001241 0.00012418 0.00012425
         0.00012433 0.00012441 0.00012448 0.00012455 0.00012463 0.0001247 0.00012477
         0.00012484 0.00012491 0.00012498 0.00012504 0.00012511 0.00012518
         0.00012524 0.0001253 0.00012537 0.00012543 0.00012549 0.00012555 0.00012561
         0.00012567 0.00012572 0.00012578 0.00012584 0.00012589 0.00012594
         0.000126 0.00012605 0.0001261 0.00012615 0.0001262 0.00012625 0.00012629
         0.00012634 0.00012639 0.00012643 0.00012647 0.00012652 0.00012656
         0.0001266 0.00012664 0.00012668 0.00012672 0.00012675 0.00012679 0.00012683
         0.00012686 0.00012689 0.00012693 0.00012696 0.00012699 0.00012702
         0.00012705 0.00012708 0.0001271 0.00012713 0.00012716 0.00012718 0.00012721
         0.00012723 0.00012725 0.00012727 0.00012729 0.00012731 0.00012733
         0.00012735 0.00012737 0.00012738 0.0001274 0.00012741 0.00012743 0.00012744
         0.00012745 0.00012746 0.00012747 0.00012748 0.00012749 0.0001275 0.0001275
         0.00012751 0.00012751 0.00012752 0.00012752 0.00012752 0.00012753
         0.00012753 0.00012753 0.00012753 0.00012752 0.00012752 0.00012752
         0.00012751 0.00012751 0.0001275 0.0001275 0.00012749 0.00012748 0.00012747
         0.00012746 0.00012745 0.00012744 0.00012743 0.00012742 0.0001274 0.00012739
         0.00012737 0.00012736 0.00012734 0.00012732 0.0001273 0.00012728 0.00012726
         0.00012724 0.00012722 0.0001272 0.00012717 0.00012715 0.00012713 0.0001271
         0.00012707 0.00012705 0.00012702 0.00012699 0.00012696 0.00012693
         0.0001269 0.00012687 0.00012684 0.00012681 0.00012677 0.00012674 0.0001267
         0.00012667 0.00012663 0.00012659 0.00012656 0.00012652 0.00012648
         0.00012644 0.0001264 0.00012636 0.00012631 0.00012627 0.00012623 0.00012618
         0.00012614 0.00012609 0.00012605 0.000126 0.00012595 0.0001259 0.00012586
         0.00012581 0.00012576 0.00012571 0.00012565 0.0001256 0.00012555 0.0001255
         0.00012544 0.00012539 0.00012533 0.00012528 0.00012522 0.00012516
         0.00012511 0.00012505 0.00012499 0.00012493 0.00012487 0.00012481
         0.00012475 0.00012468 0.00012462 0.00012456 0.0001245 0.00012443 0.00012437
         0.0001243 0.00012424 0.00012417 0.0001241 0.00012404 0.00012397 0.0001239
         0.00012383 0.00012376 0.00012369 0.00012362 0.00012355 0.00012348
         0.0001234 0.00012333 0.00012326 0.00012318 0.00012311 0.00012303 0.00012296
         0.00012288 0.00012281 0.00012273 0.00012265 0.00012257 0.0001225 0.00012242
         0.00012234 0.00012226 0.00012218 0.0001221 0.00012202 0.00012194 0.00012185
         0.00012177 0.00012169 0.00012161 0.00012152 0.00012144 0.00012135
         0.00012127 0.00012118 0.0001211 0.00012101 0.00012093 0.00012084 0.00012075
         0.00012067 0.00012058 0.00012049 0.0001204 0.00012031 0.00012022 0.00012013
         0.00012004 0.00011995 0.00011986 0.00011977 0.00011968 0.00011959
         0.0001195 0.0001194 0.00011931 0.00011922 0.00011912 0.00011903 0.00011894
         0.00011884 0.00011875 0.00011865 0.00011856 0.00011846 0.00011837
         0.00011827 0.00011817 0.00011808 0.00011798 0.00011788 0.00011779
         0.00011769 0.00011759 0.00011749 0.0001174 0.0001173 0.0001172 0.0001171
         0.000117 0.0001169 0.0001168 0.0001167 0.0001166 0.0001165 0.0001164
         0.0001163 0.0001162 0.0001161 0.000116 0.0001159 0.0001158 0.0001157
         0.0001156 0.00011549 0.00011539 0.00011529 0.00011519 0.00011509 0.00011498
         0.00011488 0.00011478 0.00011468 0.00011457 0.00011447 0.00011437
         0.00011427 0.00011416 0.00011406 0.00011396 0.00011385 0.00011375
         0.00011365 0.00011354 0.00011344 0.00011333 0.00011323 0.00011313
         0.00011302 0.00011292 0.00011282 0.00011271 0.00011261 0.0001125 0.0001124
         0.0001123 0.00011219 0.00011209 0.00011198 0.00011188 0.00011178 0.00011167
         0.00011157 0.00011146 0.00011136 0.00011126 0.00011115 0.00011105
         0.00011095 0.00011084 0.00011074 0.00011063 0.00011053 0.00011043
         0.00011032 0.00011022 0.00011012 0.00011002 0.00010991 0.00010981
         0.00010971 0.0001096 0.0001095 0.0001094 0.0001093 0.00010919 0.00010909
         0.00010899 0.00010889 0.00010879 0.00010869 0.00010858 0.00010848
         0.00010838 0.00010828 0.00010818 0.00010808 0.00010798 0.00010788
         0.00010778 0.00010768 0.00010758 0.00010748 0.00010738 0.00010728
         0.00010718 0.00010708 0.00010698 0.00010689 0.00010679 0.00010669
         0.00010659 0.0001065 0.0001064 0.0001063 0.00010621 0.00010611 0.00010601
         0.00010592 0.00010582 0.00010573 0.00010563 0.00010554 0.00010544
         0.00010535 0.00010525 0.00010516 0.00010507 0.00010497 0.00010488
         0.00010479 0.0001047 0.0001046 0.00010451 0.00010442 0.00010433 0.00010424
         0.00010415 0.00010406 0.00010397 0.00010388 0.00010379 0.0001037 0.00010361
         0.00010353 0.00010344 0.00010335 0.00010327 0.00010318 0.00010309
         0.00010301 0.00010292 0.00010284 0.00010275 0.00010267 0.00010258
         0.0001025 0.00010242 0.00010234 0.00010225 0.00010217 0.00010209 0.00010201
         0.00010193 0.00010185 0.00010177 0.00010169 0.00010161 0.00010153
         0.00010146 0.00010138 0.0001013 0.00010123 0.00010115 0.00010107 0.000101
         0.00010092 0.00010085 0.00010078 0.0001007 0.00010063 0.00010056 0.00010049
         0.00010042 0.00010034 0.00010027 0.0001002 0.00010014 0.00010007 0.000099998
         0.00009993 0.000099863 0.000099796 0.00009973 0.000099664 0.000099599
         0.000099534 0.00009947 0.000099406 0.000099343 0.000099281 0.000099219
         0.000099157 0.000099096 0.000099036 0.000098976 0.000098917 0.000098858
         0.0000988 0.000098742 0.000098685 0.000098629 0.000098573 0.000098517
         0.000098463 0.000098408 0.000098355 0.000098302 0.000098249 0.000098197
         0.000098146 0.000098095 0.000098045 0.000097996 0.000097947 0.000097898
         0.000097851 0.000097803 0.000097757 0.000097711 0.000097666 0.000097621
         0.000097577 0.000097533 0.000097491 0.000097448 0.000097407 0.000097366
         0.000097325 0.000097286 0.000097247 0.000097208 0.00009717 0.000097133
         0.000097096 0.000097061 0.000097025 0.000096991 0.000096957 0.000096923
         0.000096891 0.000096859 0.000096827 0.000096796 0.000096766 0.000096737
         0.000096708 0.00009668 0.000096653 0.000096626 0.0000966 0.000096574
         0.000096549 0.000096525 0.000096502 0.000096479 0.000096457 0.000096436
         0.000096415 0.000096395 0.000096375 0.000096357 0.000096339 0.000096321
         0.000096305 0.000096289 0.000096273 0.000096259 0.000096245 0.000096232
         0.000096219 0.000096207 0.000096196 0.000096186 0.000096176 0.000096167
         0.000096158 0.000096151 0.000096144 0.000096138 0.000096132 0.000096127
         0.000096123 0.00009612 0.000096117 0.000096115 0.000096113 0.000096113
         0.000096113 0.000096114 0.000096115 0.000096117 0.00009612 0.000096124
         0.000096128 0.000096133 0.000096139 0.000096146 0.000096153 0.000096161
         0.000096169 0.000096179 0.000096189 0.000096199 0.000096211 0.000096223
         0.000096236 0.00009625 0.000096264 0.000096279 0.000096295 0.000096311
         0.000096329 0.000096347 0.000096365 0.000096385 0.000096405 0.000096426
         0.000096447 0.000096469 0.000096492 0.000096516 0.00009654 0.000096566
         0.000096591 0.000096618 0.000096645 0.000096673 0.000096702 0.000096731
         0.000096762 0.000096793 0.000096824 0.000096856 0.000096889 0.000096923
         0.000096958 0.000096993 0.000097029 0.000097065 0.000097103 0.000097141
         0.000097179 0.000097219 0.000097259 0.0000973 0.000097342 0.000097384
         0.000097427 0.000097471 0.000097515 0.00009756 0.000097606 0.000097653
         0.0000977 0.000097748 0.000097797 0.000097846 0.000097896 0.000097947
         0.000097998 0.00009805 0.000098103 0.000098157 0.000098211 0.000098266
         0.000098322 0.000098378 0.000098435 0.000098493 0.000098552 0.000098611
         0.000098671 0.000098731 0.000098792 0.000098854 0.000098917 0.00009898
         0.000099044 0.000099109 0.000099174 0.00009924 0.000099307 0.000099374
         0.000099442 0.000099511 0.00009958 0.00009965 0.000099721 0.000099792
         0.000099864 0.000099937 0.00010001 0.00010008 0.00010016 0.00010023
         0.00010031 0.00010039 0.00010046 0.00010054 0.00010062 0.0001007 0.00010078
         0.00010086 0.00010094 0.00010102 0.00010111 0.00010119 0.00010127
         0.00010136 0.00010144 0.00010153 0.00010161 0.0001017 0.00010179 0.00010188
         0.00010197 0.00010206 0.00010215 0.00010224 0.00010233 0.00010242
         0.00010251 0.0001026 0.0001027 0.00010279 0.00010289 0.00010298 0.00010308
         0.00010318 0.00010327 0.00010337 0.00010347 0.00010357 0.00010367
         0.00010377 0.00010387 0.00010397 0.00010407 0.00010417 0.00010428
         0.00010438 0.00010449 0.00010459 0.0001047 0.0001048 0.00010491 0.00010502
         0.00010512 0.00010523 0.00010534 0.00010545 0.00010556 0.00010567
         0.00010578 0.00010589 0.000106 0.00010612 0.00010623 0.00010634 0.00010646
         0.00010657 0.00010669 0.0001068 0.00010692 0.00010703 0.00010715 0.00010727
         0.00010739 0.0001075 0.00010762 0.00010774 0.00010786 0.00010798 0.0001081
         0.00010823 0.00010835 0.00010847 0.00010859 0.00010872 0.00010884
         0.00010896 0.00010909 0.00010921 0.00010934 0.00010947 0.00010959
         0.00010972 0.00010985 0.00010998 0.0001101 0.00011023 0.00011036 0.00011049
         0.00011062 0.00011075 0.00011088 0.00011101 0.00011115 0.00011128
         0.00011141 0.00011154 0.00011168 0.00011181 0.00011194 0.00011208
         0.00011221 0.00011235 0.00011248 0.00011262 0.00011276 0.00011289
         0.00011303 0.00011317 0.00011331 0.00011344 0.00011358 0.00011372
         0.00011386 0.000114 0.00011414 0.00011428 0.00011442 0.00011456 0.0001147
         0.00011484 0.00011499 0.00011513 0.00011527 0.00011541 0.00011556
         0.0001157 0.00011584 0.00011599 0.00011613 0.00011628 0.00011642 0.00011657
         0.00011671 0.00011686 0.000117 0.00011715 0.0001173 0.00011744 0.00011759
         0.00011774 0.00011789 0.00011803 0.00011818 0.00011833 0.00011848
         0.00011863 0.00011878 0.00011893 0.00011908 0.00011923 0.00011938
         0.00011953 0.00011968 0.00011983 0.00011998 0.00012013 0.00012028
         0.00012043 0.00012058 0.00012073 0.00012089 0.00012104 0.00012119
         0.00012134 0.00012149 0.00012165 0.0001218 0.00012195 0.00012211 0.00012226
         0.00012241 0.00012257 0.00012272 0.00012287 0.00012303 0.00012318
         0.00012334 0.00012349 0.00012365 0.0001238 0.00012396 0.00012411 0.00012427
         0.00012442 0.00012458 0.00012473 0.00012489 0.00012504 0.0001252 0.00012535
         0.00012551 0.00012567 0.00012582 0.00012598 0.00012613 0.00012629
         0.00012645 0.0001266 0.00012676 0.00012691 0.00012707 0.00012723 0.00012738
         0.00012754 0.0001277 0.00012785 0.00012801 0.00012816 0.00012832 0.00012848
         0.00012863 0.00012879 0.00012895 0.0001291 0.00012926 0.00012942 0.00012957
         0.00012973 0.00012989 0.00013004 0.0001302 0.00013035 0.00013051 0.00013067
         0.00013082 0.00013098 0.00013114 0.00013129 0.00013145 0.0001316 0.00013176
         0.00013191 0.00013207 0.00013223 0.00013238 0.00013254 0.00013269
         0.00013285 0.000133 0.00013316 0.00013331 0.00013347 0.00013362 0.00013378
         0.00013393 0.00013409 0.00013424 0.00013439 0.00013455 0.0001347 0.00013486
         0.00013501 0.00013516 0.00013532 0.00013547 0.00013562 0.00013578
         0.00013593 0.00013608 0.00013623 0.00013639 0.00013654 0.00013669
         0.00013684 0.00013699 0.00013715 0.0001373 0.00013745 0.0001376 0.00013775
         0.0001379 0.00013805 0.0001382 0.00013835 0.0001385 0.00013865 0.0001388
         0.00013895 0.0001391 0.00013924 0.00013939 0.00013954 0.00013969 0.00013984
         0.00013998 0.00014013 0.00014028 0.00014042 0.00014057 0.00014072
         0.00014086 0.00014101 0.00014115 0.0001413 0.00014144 0.00014159 0.00014173
         0.00014187 0.00014202 0.00014216 0.0001423 0.00014245 0.00014259 0.00014273
         0.00014287 0.00014302 0.00014316 0.0001433 0.00014344 0.00014358 0.00014372
         0.00014386 0.000144 0.00014414 0.00014428 0.00014441 0.00014455 0.00014469
         0.00014483 0.00014496 0.0001451 0.00014524 0.00014537 0.00014551 0.00014564
         0.00014578 0.00014591 0.00014605 0.00014618 0.00014631 0.00014645
         0.00014658 0.00014671 0.00014684 0.00014698 0.00014711 0.00014724
         0.00014737 0.0001475 0.00014763 0.00014776 0.00014789 0.00014801 0.00014814
         0.00014827 0.0001484 0.00014852 0.00014865 0.00014878 0.0001489 0.00014903
         0.00014915 0.00014928 0.0001494 0.00014952 0.00014965 0.00014977 0.00014989
         0.00015001 0.00015013 0.00015026 0.00015038 0.0001505 0.00015062 0.00015073
         0.00015085 0.00015097 0.00015109 0.00015121 0.00015132 0.00015144
         0.00015156 0.00015167 0.00015179 0.0001519 0.00015201 0.00015213 0.00015224
         0.00015235 0.00015247 0.00015258 0.00015269 0.0001528 0.00015291 0.00015302
         0.00015313 0.00015324 0.00015334 0.00015345 0.00015356 0.00015367
