N = 10000. R = 10. T = 4000
p1 = 0.5. p2 = 1q1 = -0.025. q2 = 0.025. h1 = 0. h2 = 0.08. Omega = 0.38

// solution (optimal) with objective 1
// Quality Primal objective                               1.0000000000e+00
// Primal norm |x| (Total, Max)                   3.50377e+00  4.32136e-01
// Primal error (Ax=b) (Total, Max)               6.24880e-15  4.62334e-15
// Primal error (x'Qx+dx=f) (Total, Max)          3.63387e-21  3.63384e-21
// Primal x bound error (Total, Max)              0.00000e+00  0.00000e+00
// Primal slack bound error (Total, Max)          0.00000e+00  0.00000e+00
// Primal quad. slack bound error (Total, Max)    0.00000e+00  0.00000e+00
// Primal normalized error (Ax=b) (Max)           8.78572e-19
// 

y_wbound_U = [7.048e-7
         7.048e-7 7.048e-7 7.048e-7 7.0481e-7 7.0481e-7 7.0482e-7 7.0483e-7
         7.0484e-7 7.0485e-7 7.0486e-7 7.0487e-7 7.0488e-7 7.0489e-7 7.0491e-7
         7.0492e-7 7.0494e-7 7.0496e-7 7.0498e-7 7.05e-7 7.0502e-7 7.0504e-7
         7.0506e-7 7.0509e-7 7.0511e-7 7.0514e-7 7.0516e-7 7.0519e-7 7.0522e-7
         7.0525e-7 7.0528e-7 7.0532e-7 7.0535e-7 7.0538e-7 7.0542e-7 7.0546e-7
         7.0549e-7 7.0553e-7 7.0557e-7 7.0561e-7 7.0566e-7 7.057e-7 7.0574e-7
         7.0579e-7 7.0583e-7 7.0588e-7 7.0593e-7 7.0598e-7 7.0603e-7 7.0608e-7
         7.0613e-7 7.0618e-7 7.0624e-7 7.063e-7 7.0635e-7 7.0641e-7 7.0647e-7
         7.0653e-7 7.0659e-7 7.0665e-7 7.0671e-7 7.0678e-7 7.0684e-7 7.0691e-7
         7.0698e-7 7.0705e-7 7.0712e-7 7.0719e-7 7.0726e-7 7.0733e-7 7.0741e-7
         7.0748e-7 7.0756e-7 7.0763e-7 7.0771e-7 7.0779e-7 7.0787e-7 7.0795e-7
         7.0804e-7 7.0812e-7 7.0821e-7 7.0829e-7 7.0838e-7 7.0847e-7 7.0856e-7
         7.0865e-7 7.0874e-7 7.0883e-7 7.0893e-7 7.0902e-7 7.0912e-7 7.0922e-7
         7.0932e-7 7.0942e-7 7.0952e-7 7.0962e-7 7.0973e-7 7.0983e-7 7.0994e-7
         7.1004e-7 7.1015e-7 7.1026e-7 7.1037e-7 7.1049e-7 7.106e-7 7.1072e-7
         7.1083e-7 7.1095e-7 7.1107e-7 7.1119e-7 7.1131e-7 7.1143e-7 7.1156e-7
         7.1168e-7 7.1181e-7 7.1194e-7 7.1207e-7 7.122e-7 7.1233e-7 7.1246e-7
         7.126e-7 7.1274e-7 7.1288e-7 7.1301e-7 7.1316e-7 7.133e-7 7.1344e-7
         7.1359e-7 7.1374e-7 7.1388e-7 7.1404e-7 7.1419e-7 7.1434e-7 7.145e-7
         7.1465e-7 7.1481e-7 7.1497e-7 7.1513e-7 7.153e-7 7.1546e-7 7.1563e-7
         7.158e-7 7.1597e-7 7.1614e-7 7.1632e-7 7.1649e-7 7.1667e-7 7.1685e-7
         7.1704e-7 7.1722e-7 7.1741e-7 7.176e-7 7.1779e-7 7.1798e-7 7.1817e-7
         7.1837e-7 7.1857e-7 7.1877e-7 7.1898e-7 7.1918e-7 7.1939e-7 7.196e-7
         7.1981e-7 7.2003e-7 7.2025e-7 7.2047e-7 7.2069e-7 7.2092e-7 7.2115e-7
         7.2138e-7 7.2161e-7 7.2185e-7 7.2209e-7 7.2233e-7 7.2258e-7 7.2283e-7
         7.2308e-7 7.2334e-7 7.236e-7 7.2386e-7 7.2412e-7 7.2439e-7 7.2466e-7
         7.2494e-7 7.2522e-7 7.255e-7 7.2579e-7 7.2608e-7 7.2637e-7 7.2667e-7
         7.2697e-7 7.2728e-7 7.2759e-7 7.2791e-7 7.2823e-7 7.2855e-7 7.2888e-7
         7.2921e-7 7.2955e-7 7.299e-7 7.3024e-7 7.306e-7 7.3096e-7 7.3132e-7
         7.3169e-7 7.3207e-7 7.3245e-7 7.3284e-7 7.3323e-7 7.3363e-7 7.3404e-7
         7.3445e-7 7.3487e-7 7.353e-7 7.3573e-7 7.3618e-7 7.3663e-7 7.3709e-7
         7.3755e-7 7.3803e-7 7.3851e-7 7.3901e-7 7.3951e-7 7.4002e-7 7.4054e-7
         7.4108e-7 7.4162e-7 7.4218e-7 7.4275e-7 7.4333e-7 7.4393e-7 7.4454e-7
         7.4516e-7 7.458e-7 7.4645e-7 7.4713e-7 7.4782e-7 7.4853e-7 7.4926e-7
         7.5001e-7 7.5078e-7 7.5158e-7 7.5241e-7 7.5326e-7 7.5414e-7 7.5506e-7
         7.5601e-7 7.5699e-7 7.5802e-7 7.5908e-7 7.602e-7 7.6136e-7 7.6258e-7
         7.6386e-7 7.652e-7 7.666e-7 7.6809e-7 7.6966e-7 7.7131e-7 7.7306e-7
         7.7492e-7 7.769e-7 7.79e-7 7.8124e-7 7.8363e-7 7.8618e-7 7.8892e-7
         7.9185e-7 7.95e-7 7.9839e-7 8.0203e-7 8.0595e-7 8.1018e-7 8.1475e-7
         8.1969e-7 8.2504e-7 8.3082e-7 8.3709e-7 8.439e-7 8.5129e-7 8.5931e-7
         8.6804e-7 8.7754e-7 8.8788e-7 8.9914e-7 9.1139e-7 9.2472e-7 9.3921e-7
         9.5494e-7 9.72e-7 9.9045e-7 0.0000010104 0.0000010318 0.0000010548
         0.0000010793 0.0000011055 0.0000011332 0.0000011625 0.0000011934 0.0000012257
         0.0000012595 0.0000012947 0.0000013312 0.0000013689 0.0000014078 0.0000014478
         0.0000014888 0.0000015308 0.0000015738 0.0000016175 0.0000016621 0.0000017074
         0.0000017534 0.0000018001 0.0000018473 0.0000018952 0.0000019436 0.0000019924
         0.0000020418 0.0000020917 0.0000021419 0.0000021926 0.0000022437 0.0000022951
         0.0000023469 0.000002399 0.0000024515 0.0000025042 0.0000025573 0.0000026107
         0.0000026643 0.0000027182 0.0000027723 0.0000028267 0.0000028814 0.0000029363
         0.0000029914 0.0000030467 0.0000031023 0.000003158 0.000003214 0.0000032702
         0.0000033265 0.0000033831 0.0000034398 0.0000034968 0.0000035539 0.0000036112
         0.0000036687 0.0000037264 0.0000037842 0.0000038423 0.0000039004 0.0000039588
         0.0000040173 0.000004076 0.0000041349 0.0000041939 0.0000042531 0.0000043124
         0.0000043719 0.0000044315 0.0000044913 0.0000045513 0.0000046114 0.0000046717
         0.0000047321 0.0000047927 0.0000048534 0.0000049143 0.0000049753 0.0000050365
         0.0000050978 0.0000051593 0.0000052209 0.0000052826 0.0000053445 0.0000054066
         0.0000054688 0.0000055311 0.0000055936 0.0000056562 0.000005719 0.0000057819
         0.0000058449 0.0000059081 0.0000059715 0.0000060349 0.0000060985 0.0000061623
         0.0000062262 0.0000062902 0.0000063544 0.0000064187 0.0000064831 0.0000065477
         0.0000066124 0.0000066773 0.0000067422 0.0000068074 0.0000068726 0.000006938
         0.0000070035 0.0000070692 0.000007135 0.0000072009 0.000007267 0.0000073332
         0.0000073995 0.000007466 0.0000075326 0.0000075993 0.0000076662 0.0000077331
         0.0000078003 0.0000078675 0.0000079349 0.0000080024 0.0000080701 0.0000081378
         0.0000082057 0.0000082738 0.0000083419 0.0000084102 0.0000084786 0.0000085472
         0.0000086158 0.0000086846 0.0000087536 0.0000088226 0.0000088918 0.0000089611
         0.0000090305 0.0000091001 0.0000091698 0.0000092396 0.0000093095 0.0000093796
         0.0000094498 0.0000095201 0.0000095905 0.0000096611 0.0000097318 0.0000098026
         0.0000098735 0.0000099446 0.000010016 0.000010087 0.000010158 0.00001023
         0.000010302 0.000010373 0.000010445 0.000010517 0.00001059 0.000010662
         0.000010734 0.000010807 0.000010879 0.000010952 0.000011025 0.000011098
         0.000011171 0.000011244 0.000011318 0.000011391 0.000011465 0.000011538
         0.000011612 0.000011686 0.00001176 0.000011834 0.000011909 0.000011983
         0.000012058 0.000012132 0.000012207 0.000012282 0.000012357 0.000012432
         0.000012507 0.000012582 0.000012658 0.000012733 0.000012809 0.000012885
         0.000012961 0.000013037 0.000013113 0.000013189 0.000013265 0.000013342
         0.000013418 0.000013495 0.000013572 0.000013649 0.000013726 0.000013803
         0.00001388 0.000013958 0.000014035 0.000014113 0.00001419 0.000014268
         0.000014346 0.000014424 0.000014502 0.00001458 0.000014658 0.000014737
         0.000014815 0.000014894 0.000014973 0.000015052 0.000015131 0.00001521
         0.000015289 0.000015368 0.000015448 0.000015527 0.000015607 0.000015686
         0.000015766 0.000015846 0.000015926 0.000016006 0.000016086 0.000016167
         0.000016247 0.000016328 0.000016408 0.000016489 0.00001657 0.000016651
         0.000016732 0.000016813 0.000016894 0.000016976 0.000017057 0.000017139
         0.00001722 0.000017302 0.000017384 0.000017466 0.000017548 0.00001763
         0.000017712 0.000017795 0.000017877 0.00001796 0.000018042 0.000018125
         0.000018208 0.000018291 0.000018374 0.000018457 0.00001854 0.000018623
         0.000018707 0.00001879 0.000018874 0.000018958 0.000019042 0.000019125
         0.000019209 0.000019293 0.000019378 0.000019462 0.000019546 0.000019631
         0.000019715 0.0000198 0.000019885 0.000019969 0.000020054 0.000020139
         0.000020225 0.00002031 0.000020395 0.00002048 0.000020566 0.000020651
         0.000020737 0.000020823 0.000020909 0.000020995 0.000021081 0.000021167
         0.000021253 0.000021339 0.000021426 0.000021512 0.000021599 0.000021685
         0.000021772 0.000021859 0.000021946 0.000022033 0.00002212 0.000022207
         0.000022294 0.000022381 0.000022469 0.000022556 0.000022644 0.000022732
         0.000022819 0.000022907 0.000022995 0.000023083 0.000023171 0.000023259
         0.000023348 0.000023436 0.000023524 0.000023613 0.000023701 0.00002379
         0.000023879 0.000023968 0.000024057 0.000024146 0.000024235 0.000024324
         0.000024413 0.000024502 0.000024592 0.000024681 0.000024771 0.000024861
         0.00002495 0.00002504 0.00002513 0.00002522 0.00002531 0.0000254 0.00002549
         0.000025581 0.000025671 0.000025761 0.000025852 0.000025942 0.000026033
         0.000026124 0.000026215 0.000026305 0.000026396 0.000026487 0.000026579
         0.00002667 0.000026761 0.000026852 0.000026944 0.000027035 0.000027127
         0.000027218 0.00002731 0.000027402 0.000027494 0.000027586 0.000027678
         0.00002777 0.000027862 0.000027954 0.000028046 0.000028139 0.000028231
         0.000028324 0.000028416 0.000028509 0.000028602 0.000028694 0.000028787
         0.00002888 0.000028973 0.000029066 0.000029159 0.000029253 0.000029346
         0.000029439 0.000029533 0.000029626 0.00002972 0.000029813 0.000029907
         0.000030001 0.000030094 0.000030188 0.000030282 0.000030376 0.00003047
         0.000030565 0.000030659 0.000030753 0.000030847 0.000030942 0.000031036
         0.000031131 0.000031225 0.00003132 0.000031415 0.000031509 0.000031604
         0.000031699 0.000031794 0.000031889 0.000031984 0.00003208 0.000032175
         0.00003227 0.000032365 0.000032461 0.000032556 0.000032652 0.000032747
         0.000032843 0.000032939 0.000033035 0.00003313 0.000033226 0.000033322
         0.000033418 0.000033514 0.00003361 0.000033707 0.000033803 0.000033899
         0.000033995 0.000034092 0.000034188 0.000034285 0.000034382 0.000034478
         0.000034575 0.000034672 0.000034768 0.000034865 0.000034962 0.000035059
         0.000035156 0.000035253 0.000035351 0.000035448 0.000035545 0.000035642
         0.00003574 0.000035837 0.000035935 0.000036032 0.00003613 0.000036227
         0.000036325 0.000036423 0.000036521 0.000036618 0.000036716 0.000036814
         0.000036912 0.00003701 0.000037108 0.000037207 0.000037305 0.000037403
         0.000037501 0.0000376 0.000037698 0.000037797 0.000037895 0.000037994
         0.000038092 0.000038191 0.00003829 0.000038389 0.000038487 0.000038586
         0.000038685 0.000038784 0.000038883 0.000038982 0.000039081 0.00003918
         0.000039279 0.000039379 0.000039478 0.000039577 0.000039677 0.000039776
         0.000039876 0.000039975 0.000040075 0.000040174 0.000040274 0.000040374
         0.000040473 0.000040573 0.000040673 0.000040773 0.000040873 0.000040973
         0.000041073 0.000041173 0.000041273 0.000041373 0.000041473 0.000041573
         0.000041674 0.000041774 0.000041874 0.000041975 0.000042075 0.000042176
         0.000042276 0.000042377 0.000042477 0.000042578 0.000042679 0.000042779
         0.00004288 0.000042981 0.000043082 0.000043182 0.000043283 0.000043384
         0.000043485 0.000043586 0.000043687 0.000043789 0.00004389 0.000043991
         0.000044092 0.000044193 0.000044295 0.000044396 0.000044497 0.000044599
         0.0000447 0.000044802 0.000044903 0.000045005 0.000045106 0.000045208
         0.00004531 0.000045411 0.000045513 0.000045615 0.000045717 0.000045818
         0.00004592 0.000046022 0.000046124 0.000046226 0.000046328 0.00004643
         0.000046532 0.000046634 0.000046736 0.000046839 0.000046941 0.000047043
         0.000047145 0.000047248 0.00004735 0.000047452 0.000047555 0.000047657
         0.00004776 0.000047862 0.000047965 0.000048067 0.00004817 0.000048272
         0.000048375 0.000048478 0.00004858 0.000048683 0.000048786 0.000048889
         0.000048992 0.000049094 0.000049197 0.0000493 0.000049403 0.000049506
         0.000049609 0.000049712 0.000049815 0.000049918 0.000050021 0.000050124
         0.000050228 0.000050331 0.000050434 0.000050537 0.000050641 0.000050744
         0.000050847 0.000050951 0.000051054 0.000051157 0.000051261 0.000051364
         0.000051468 0.000051571 0.000051675 0.000051778 0.000051882 0.000051985
         0.000052089 0.000052193 0.000052296 0.0000524 0.000052504 0.000052608
         0.000052711 0.000052815 0.000052919 0.000053023 0.000053127 0.00005323
         0.000053334 0.000053438 0.000053542 0.000053646 0.00005375 0.000053854
         0.000053958 0.000054062 0.000054166 0.00005427 0.000054375 0.000054479
         0.000054583 0.000054687 0.000054791 0.000054896 0.000055 0.000055104
         0.000055208 0.000055313 0.000055417 0.000055521 0.000055626 0.00005573
         0.000055834 0.000055939 0.000056043 0.000056148 0.000056252 0.000056357
         0.000056461 0.000056566 0.00005667 0.000056775 0.000056879 0.000056984
         0.000057089 0.000057193 0.000057298 0.000057402 0.000057507 0.000057612
         0.000057716 0.000057821 0.000057926 0.000058031 0.000058135 0.00005824
         0.000058345 0.00005845 0.000058555 0.00005866 0.000058764 0.000058869
         0.000058974 0.000059079 0.000059184 0.000059289 0.000059394 0.000059499
         0.000059604 0.000059709 0.000059814 0.000059919 0.000060024 0.000060129
         0.000060234 0.000060339 0.000060444 0.000060549 0.000060654 0.000060759
         0.000060864 0.000060969 0.000061075 0.00006118 0.000061285 0.00006139
         0.000061495 0.0000616 0.000061706 0.000061811 0.000061916 0.000062021
         0.000062127 0.000062232 0.000062337 0.000062442 0.000062548 0.000062653
         0.000062758 0.000062864 0.000062969 0.000063074 0.00006318 0.000063285
         0.00006339 0.000063496 0.000063601 0.000063706 0.000063812 0.000063917
         0.000064023 0.000064128 0.000064233 0.000064339 0.000064444 0.00006455
         0.000064655 0.000064761 0.000064866 0.000064971 0.000065077 0.000065182
         0.000065288 0.000065393 0.000065499 0.000065604 0.00006571 0.000065815
         0.000065921 0.000066026 0.000066132 0.000066237 0.000066343 0.000066449
         0.000066554 0.00006666 0.000066765 0.000066871 0.000066976 0.000067082
         0.000067187 0.000067293 0.000067399 0.000067504 0.00006761 0.000067715
         0.000067821 0.000067927 0.000068032 0.000068138 0.000068243 0.000068349
         0.000068455 0.00006856 0.000068666 0.000068771 0.000068877 0.000068983
         0.000069088 0.000069194 0.000069299 0.000069405 0.000069511 0.000069616
         0.000069722 0.000069828 0.000069933 0.000070039 0.000070144 0.00007025
         0.000070356 0.000070461 0.000070567 0.000070672 0.000070778 0.000070884
         0.000070989 0.000071095 0.000071201 0.000071306 0.000071412 0.000071517
         0.000071623 0.000071729 0.000071834 0.00007194 0.000072045 0.000072151
         0.000072257 0.000072362 0.000072468 0.000072573 0.000072679 0.000072785
         0.00007289 0.000072996 0.000073101 0.000073207 0.000073313 0.000073418
         0.000073524 0.000073629 0.000073735 0.00007384 0.000073946 0.000074051
         0.000074157 0.000074263 0.000074368 0.000074474 0.000074579 0.000074685
         0.00007479 0.000074896 0.000075001 0.000075107 0.000075212 0.000075318
         0.000075423 0.000075529 0.000075634 0.00007574 0.000075845 0.000075951
         0.000076056 0.000076161 0.000076267 0.000076372 0.000076478 0.000076583
         0.000076689 0.000076794 0.000076899 0.000077005 0.00007711 0.000077216
         0.000077321 0.000077426 0.000077532 0.000077637 0.000077742 0.000077848
         0.000077953 0.000078058 0.000078164 0.000078269 0.000078374 0.000078479
         0.000078585 0.00007869 0.000078795 0.000078901 0.000079006 0.000079111
         0.000079216 0.000079321 0.000079427 0.000079532 0.000079637 0.000079742
         0.000079847 0.000079952 0.000080058 0.000080163 0.000080268 0.000080373
         0.000080478 0.000080583 0.000080688 0.000080793 0.000080898 0.000081003
         0.000081108 0.000081213 0.000081318 0.000081423 0.000081528 0.000081633
         0.000081738 0.000081843 0.000081948 0.000082053 0.000082158 0.000082263
         0.000082368 0.000082473 0.000082578 0.000082683 0.000082787 0.000082892
         0.000082997 0.000083102 0.000083207 0.000083311 0.000083416 0.000083521
         0.000083626 0.00008373 0.000083835 0.00008394 0.000084044 0.000084149
         0.000084254 0.000084358 0.000084463 0.000084568 0.000084672 0.000084777
         0.000084881 0.000084986 0.00008509 0.000085195 0.000085299 0.000085404
         0.000085508 0.000085613 0.000085717 0.000085822 0.000085926 0.000086031
         0.000086135 0.000086239 0.000086344 0.000086448 0.000086552 0.000086657
         0.000086761 0.000086865 0.000086969 0.000087074 0.000087178 0.000087282
         0.000087386 0.00008749 0.000087594 0.000087699 0.000087803 0.000087907
         0.000088011 0.000088115 0.000088219 0.000088323 0.000088427 0.000088531
         0.000088635 0.000088739 0.000088843 0.000088947 0.000089051 0.000089154
         0.000089258 0.000089362 0.000089466 0.00008957 0.000089674 0.000089777
         0.000089881 0.000089985 0.000090088 0.000090192 0.000090296 0.000090399
         0.000090503 0.000090607 0.00009071 0.000090814 0.000090917 0.000091021
         0.000091124 0.000091228 0.000091331 0.000091435 0.000091538 0.000091642
         0.000091745 0.000091848 0.000091952 0.000092055 0.000092158 0.000092261
         0.000092365 0.000092468 0.000092571 0.000092674 0.000092778 0.000092881
         0.000092984 0.000093087 0.00009319 0.000093293 0.000093396 0.000093499
         0.000093602 0.000093705 0.000093808 0.000093911 0.000094014 0.000094117
         0.000094219 0.000094322 0.000094425 0.000094528 0.00009463 0.000094733
         0.000094836 0.000094939 0.000095041 0.000095144 0.000095246 0.000095349
         0.000095452 0.000095554 0.000095657 0.000095759 0.000095862 0.000095964
         0.000096066 0.000096169 0.000096271 0.000096373 0.000096476 0.000096578
         0.00009668 0.000096782 0.000096885 0.000096987 0.000097089 0.000097191
         0.000097293 0.000097395 0.000097497 0.000097599 0.000097701 0.000097803
         0.000097905 0.000098007 0.000098109 0.000098211 0.000098313 0.000098414
         0.000098516 0.000098618 0.00009872 0.000098821 0.000098923 0.000099025
         0.000099126 0.000099228 0.000099329 0.000099431 0.000099533 0.000099634
         0.000099735 0.000099837 0.000099938 0.00010004 0.00010014 0.00010024
         0.00010034 0.00010044 0.00010055 0.00010065 0.00010075 0.00010085
         0.00010095 0.00010105 0.00010115 0.00010125 0.00010135 0.00010146
         0.00010156 0.00010166 0.00010176 0.00010186 0.00010196 0.00010206
         0.00010216 0.00010226 0.00010236 0.00010246 0.00010256 0.00010266
         0.00010277 0.00010287 0.00010297 0.00010307 0.00010317 0.00010327
         0.00010337 0.00010347 0.00010357 0.00010367 0.00010377 0.00010387
         0.00010397 0.00010407 0.00010417 0.00010427 0.00010437 0.00010447
         0.00010457 0.00010467 0.00010477 0.00010487 0.00010497 0.00010507
         0.00010517 0.00010527 0.00010537 0.00010547 0.00010557 0.00010567
         0.00010577 0.00010587 0.00010597 0.00010607 0.00010616 0.00010626
         0.00010636 0.00010646 0.00010656 0.00010666 0.00010676 0.00010686
         0.00010696 0.00010706 0.00010716 0.00010726 0.00010736 0.00010745
         0.00010755 0.00010765 0.00010775 0.00010785 0.00010795 0.00010805
         0.00010815 0.00010824 0.00010834 0.00010844 0.00010854 0.00010864
         0.00010874 0.00010884 0.00010893 0.00010903 0.00010913 0.00010923
         0.00010933 0.00010943 0.00010952 0.00010962 0.00010972 0.00010982
         0.00010992 0.00011001 0.00011011 0.00011021 0.00011031 0.00011041
         0.0001105 0.0001106 0.0001107 0.0001108 0.0001109 0.00011099 0.00011109
