N = 10000. R = 10. T = 4000
p1 = 0. p2 = 1q1 = -1. q2 = 1. h1 = 0.08. h2 = 0.1. Omega = 0.38

// solution (optimal) with objective 1
// Quality Primal objective                               1.0000000000e+00
// Primal norm |x| (Total, Max)                   3.18093e+00  6.00024e-01
// Primal error (Ax=b) (Total, Max)               1.06247e-14  6.32190e-15
// Primal error (x'Qx+dx=f) (Total, Max)          4.82651e-30  4.82651e-30
// Primal x bound error (Total, Max)              0.00000e+00  0.00000e+00
// Primal slack bound error (Total, Max)          2.79696e-10  2.79696e-10
// Primal quad. slack bound error (Total, Max)    0.00000e+00  0.00000e+00
// Primal normalized error (Ax=b) (Max)           2.43565e-19
// 

y_wbound_U = [0.0000017946
         0.0000018271 0.00000186 0.0000018935 0.0000019274 0.0000019619 0.0000019968
         0.0000020321 0.000002068 0.0000021043 0.0000021411 0.0000021784 0.0000022162
         0.0000022544 0.0000022931 0.0000023322 0.0000023719 0.000002412 0.0000024526
         0.0000024936 0.0000025352 0.0000025771 0.0000026196 0.0000026625 0.0000027059
         0.0000027498 0.0000027942 0.000002839 0.0000028842 0.00000293 0.0000029762
         0.0000030229 0.00000307 0.0000031176 0.0000031657 0.0000032142 0.0000032632
         0.0000033127 0.0000033626 0.000003413 0.0000034639 0.0000035153 0.0000035671
         0.0000036193 0.000003672 0.0000037252 0.0000037789 0.000003833 0.0000038876
         0.0000039427 0.0000039982 0.0000040542 0.0000041106 0.0000041675 0.0000042249
         0.0000042827 0.000004341 0.0000043998 0.000004459 0.0000045187 0.0000045788
         0.0000046394 0.0000047005 0.0000047621 0.0000048241 0.0000048865 0.0000049494
         0.0000050128 0.0000050767 0.000005141 0.0000052057 0.000005271 0.0000053367
         0.0000054028 0.0000054694 0.0000055365 0.000005604 0.000005672 0.0000057405
         0.0000058094 0.0000058788 0.0000059486 0.0000060189 0.0000060897 0.0000061609
         0.0000062325 0.0000063047 0.0000063773 0.0000064503 0.0000065238 0.0000065978
         0.0000066722 0.0000067471 0.0000068224 0.0000068982 0.0000069745 0.0000070512
         0.0000071284 0.000007206 0.0000072841 0.0000073626 0.0000074416 0.0000075211
         0.000007601 0.0000076813 0.0000077621 0.0000078434 0.0000079251 0.0000080073
         0.00000809 0.0000081731 0.0000082566 0.0000083406 0.0000084251 0.00000851
         0.0000085953 0.0000086811 0.0000087674 0.0000088541 0.0000089413 0.0000090289
         0.000009117 0.0000092055 0.0000092945 0.0000093839 0.0000094738 0.0000095641
         0.0000096549 0.0000097461 0.0000098378 0.0000099299 0.000010022 0.000010116
         0.000010209 0.000010303 0.000010397 0.000010492 0.000010587 0.000010683
         0.000010779 0.000010876 0.000010973 0.00001107 0.000011168 0.000011267
         0.000011365 0.000011465 0.000011564 0.000011665 0.000011765 0.000011866
         0.000011968 0.00001207 0.000012172 0.000012275 0.000012378 0.000012482
         0.000012586 0.000012691 0.000012796 0.000012901 0.000013007 0.000013113
         0.00001322 0.000013327 0.000013435 0.000013543 0.000013652 0.00001376
         0.00001387 0.00001398 0.00001409 0.000014201 0.000014312 0.000014423
         0.000014535 0.000014648 0.000014761 0.000014874 0.000014988 0.000015102
         0.000015217 0.000015332 0.000015447 0.000015563 0.000015679 0.000015796
         0.000015913 0.000016031 0.000016149 0.000016267 0.000016386 0.000016505
         0.000016625 0.000016745 0.000016866 0.000016987 0.000017108 0.00001723
         0.000017353 0.000017475 0.000017598 0.000017722 0.000017846 0.00001797
         0.000018095 0.00001822 0.000018346 0.000018472 0.000018599 0.000018725
         0.000018853 0.000018981 0.000019109 0.000019237 0.000019366 0.000019496
         0.000019626 0.000019756 0.000019886 0.000020017 0.000020149 0.000020281
         0.000020413 0.000020546 0.000020679 0.000020812 0.000020946 0.000021081
         0.000021216 0.000021351 0.000021486 0.000021622 0.000021759 0.000021895
         0.000022033 0.00002217 0.000022308 0.000022447 0.000022585 0.000022725
         0.000022864 0.000023004 0.000023145 0.000023285 0.000023427 0.000023568
         0.00002371 0.000023853 0.000023995 0.000024139 0.000024282 0.000024426
         0.000024571 0.000024715 0.000024861 0.000025006 0.000025152 0.000025298
         0.000025445 0.000025592 0.00002574 0.000025888 0.000026036 0.000026185
         0.000026334 0.000026483 0.000026633 0.000026783 0.000026934 0.000027085
         0.000027236 0.000027388 0.00002754 0.000027693 0.000027846 0.000027999
         0.000028152 0.000028307 0.000028461 0.000028616 0.000028771 0.000028926
         0.000029082 0.000029239 0.000029395 0.000029552 0.00002971 0.000029868
         0.000030026 0.000030184 0.000030343 0.000030503 0.000030662 0.000030822
         0.000030983 0.000031143 0.000031304 0.000031466 0.000031628 0.00003179
         0.000031953 0.000032115 0.000032279 0.000032442 0.000032606 0.000032771
         0.000032936 0.000033101 0.000033266 0.000033432 0.000033598 0.000033765
         0.000033931 0.000034099 0.000034266 0.000034434 0.000034602 0.000034771
         0.00003494 0.000035109 0.000035279 0.000035449 0.00003562 0.00003579
         0.000035961 0.000036133 0.000036305 0.000036477 0.000036649 0.000036822
         0.000036995 0.000037169 0.000037342 0.000037517 0.000037691 0.000037866
         0.000038041 0.000038217 0.000038392 0.000038569 0.000038745 0.000038922
         0.000039099 0.000039277 0.000039454 0.000039633 0.000039811 0.00003999
         0.000040169 0.000040349 0.000040528 0.000040709 0.000040889 0.00004107
         0.000041251 0.000041432 0.000041614 0.000041796 0.000041979 0.000042161
         0.000042344 0.000042528 0.000042711 0.000042895 0.00004308 0.000043264
         0.000043449 0.000043634 0.00004382 0.000044006 0.000044192 0.000044378
         0.000044565 0.000044752 0.00004494 0.000045127 0.000045315 0.000045504
         0.000045692 0.000045881 0.000046071 0.00004626 0.00004645 0.00004664
         0.000046831 0.000047021 0.000047212 0.000047404 0.000047595 0.000047787
         0.000047979 0.000048172 0.000048365 0.000048558 0.000048751 0.000048945
         0.000049139 0.000049333 0.000049528 0.000049722 0.000049917 0.000050113
         0.000050308 0.000050504 0.000050701 0.000050897 0.000051094 0.000051291
         0.000051488 0.000051686 0.000051884 0.000052082 0.000052281 0.000052479
         0.000052678 0.000052878 0.000053077 0.000053277 0.000053477 0.000053678
         0.000053878 0.000054079 0.00005428 0.000054482 0.000054683 0.000054885
         0.000055088 0.00005529 0.000055493 0.000055696 0.000055899 0.000056103
         0.000056306 0.00005651 0.000056715 0.000056919 0.000057124 0.000057329
         0.000057535 0.00005774 0.000057946 0.000058152 0.000058358 0.000058565
         0.000058772 0.000058979 0.000059186 0.000059394 0.000059601 0.000059809
         0.000060018 0.000060226 0.000060435 0.000060644 0.000060853 0.000061063
         0.000061273 0.000061482 0.000061693 0.000061903 0.000062114 0.000062325
         0.000062536 0.000062747 0.000062959 0.00006317 0.000063382 0.000063595
         0.000063807 0.00006402 0.000064233 0.000064446 0.000064659 0.000064873
         0.000065087 0.000065301 0.000065515 0.00006573 0.000065944 0.000066159
         0.000066374 0.00006659 0.000066805 0.000067021 0.000067237 0.000067453
         0.00006767 0.000067886 0.000068103 0.00006832 0.000068537 0.000068755
         0.000068972 0.00006919 0.000069408 0.000069626 0.000069845 0.000070064
         0.000070282 0.000070501 0.000070721 0.00007094 0.00007116 0.00007138
         0.0000716 0.00007182 0.00007204 0.000072261 0.000072482 0.000072703
         0.000072924 0.000073145 0.000073367 0.000073588 0.00007381 0.000074032
         0.000074254 0.000074477 0.0000747 0.000074922 0.000075145 0.000075368
         0.000075592 0.000075815 0.000076039 0.000076263 0.000076487 0.000076711
         0.000076935 0.00007716 0.000077385 0.00007761 0.000077835 0.00007806
         0.000078285 0.000078511 0.000078736 0.000078962 0.000079188 0.000079414
         0.000079641 0.000079867 0.000080094 0.000080321 0.000080548 0.000080775
         0.000081002 0.00008123 0.000081457 0.000081685 0.000081913 0.000082141
         0.000082369 0.000082597 0.000082826 0.000083055 0.000083283 0.000083512
         0.000083741 0.000083971 0.0000842 0.000084429 0.000084659 0.000084889
         0.000085119 0.000085349 0.000085579 0.000085809 0.00008604 0.00008627
         0.000086501 0.000086732 0.000086963 0.000087194 0.000087425 0.000087656
         0.000087888 0.000088119 0.000088351 0.000088583 0.000088815 0.000089047
         0.000089279 0.000089512 0.000089744 0.000089977 0.000090209 0.000090442
         0.000090675 0.000090908 0.000091141 0.000091374 0.000091608 0.000091841
         0.000092075 0.000092308 0.000092542 0.000092776 0.00009301 0.000093244
         0.000093479 0.000093713 0.000093947 0.000094182 0.000094416 0.000094651
         0.000094886 0.000095121 0.000095356 0.000095591 0.000095826 0.000096062
         0.000096297 0.000096532 0.000096768 0.000097004 0.000097239 0.000097475
         0.000097711 0.000097947 0.000098183 0.000098419 0.000098656 0.000098892
         0.000099128 0.000099365 0.000099602 0.000099838 0.00010008 0.00010031
         0.00010055 0.00010079 0.00010102 0.00010126 0.0001015 0.00010173 0.00010197
         0.00010221 0.00010245 0.00010268 0.00010292 0.00010316 0.0001034 0.00010363
         0.00010387 0.00010411 0.00010435 0.00010459 0.00010482 0.00010506
         0.0001053 0.00010554 0.00010578 0.00010602 0.00010625 0.00010649 0.00010673
         0.00010697 0.00010721 0.00010745 0.00010769 0.00010793 0.00010816
         0.0001084 0.00010864 0.00010888 0.00010912 0.00010936 0.0001096 0.00010984
         0.00011008 0.00011032 0.00011055 0.00011079 0.00011103 0.00011127
         0.00011151 0.00011175 0.00011199 0.00011223 0.00011247 0.00011271
         0.00011295 0.00011319 0.00011343 0.00011367 0.00011391 0.00011415
         0.00011439 0.00011463 0.00011487 0.00011511 0.00011535 0.00011559
         0.00011583 0.00011607 0.00011631 0.00011655 0.00011679 0.00011703
         0.00011727 0.00011751 0.00011775 0.00011799 0.00011823 0.00011847
         0.00011871 0.00011895 0.00011919 0.00011943 0.00011967 0.00011991
         0.00012015 0.00012039 0.00012063 0.00012087 0.00012111 0.00012135
         0.00012159 0.00012183 0.00012207 0.00012231 0.00012255 0.00012279
         0.00012303 0.00012327 0.00012351 0.00012375 0.00012399 0.00012423
         0.00012447 0.0001247 0.00012494 0.00012518 0.00012542 0.00012566 0.0001259
         0.00012614 0.00012638 0.00012662 0.00012686 0.0001271 0.00012734 0.00012758
         0.00012782 0.00012806 0.0001283 0.00012854 0.00012878 0.00012902 0.00012926
         0.0001295 0.00012974 0.00012998 0.00013022 0.00013046 0.00013069 0.00013093
         0.00013117 0.00013141 0.00013165 0.00013189 0.00013213 0.00013237
         0.00013261 0.00013285 0.00013308 0.00013332 0.00013356 0.0001338 0.00013404
         0.00013428 0.00013452 0.00013475 0.00013499 0.00013523 0.00013547
         0.00013571 0.00013595 0.00013618 0.00013642 0.00013666 0.0001369 0.00013714
         0.00013737 0.00013761 0.00013785 0.00013809 0.00013832 0.00013856
         0.0001388 0.00013904 0.00013927 0.00013951 0.00013975 0.00013999 0.00014022
         0.00014046 0.0001407 0.00014093 0.00014117 0.00014141 0.00014164 0.00014188
         0.00014212 0.00014235 0.00014259 0.00014283 0.00014306 0.0001433 0.00014353
         0.00014377 0.000144 0.00014424 0.00014448 0.00014471 0.00014495 0.00014518
         0.00014542 0.00014565 0.00014589 0.00014612 0.00014636 0.00014659
         0.00014683 0.00014706 0.0001473 0.00014753 0.00014777 0.000148 0.00014823
         0.00014847 0.0001487 0.00014894 0.00014917 0.0001494 0.00014964 0.00014987
         0.0001501 0.00015034 0.00015057 0.0001508 0.00015104 0.00015127 0.0001515
         0.00015173 0.00015197 0.0001522 0.00015243 0.00015266 0.00015289 0.00015313
         0.00015336 0.00015359 0.00015382 0.00015405 0.00015428 0.00015451
         0.00015475 0.00015498 0.00015521 0.00015544 0.00015567 0.0001559 0.00015613
         0.00015636 0.00015659 0.00015682 0.00015705 0.00015728 0.00015751
         0.00015774 0.00015797 0.0001582 0.00015843 0.00015865 0.00015888 0.00015911
         0.00015934 0.00015957 0.0001598 0.00016002 0.00016025 0.00016048 0.00016071
         0.00016093 0.00016116 0.00016139 0.00016162 0.00016184 0.00016207
         0.0001623 0.00016252 0.00016275 0.00016298 0.0001632 0.00016343 0.00016365
         0.00016388 0.0001641 0.00016433 0.00016455 0.00016478 0.000165 0.00016523
         0.00016545 0.00016568 0.0001659 0.00016613 0.00016635 0.00016657 0.0001668
         0.00016702 0.00016724 0.00016747 0.00016769 0.00016791 0.00016813
         0.00016836 0.00016858 0.0001688 0.00016902 0.00016924 0.00016947 0.00016969
         0.00016991 0.00017013 0.00017035 0.00017057 0.00017079 0.00017101
         0.00017123 0.00017145 0.00017167 0.00017189 0.00017211 0.00017233
         0.00017255 0.00017277 0.00017299 0.0001732 0.00017342 0.00017364 0.00017386
         0.00017408 0.00017429 0.00017451 0.00017473 0.00017495 0.00017516
         0.00017538 0.0001756 0.00017581 0.00017603 0.00017624 0.00017646 0.00017667
         0.00017689 0.00017711 0.00017732 0.00017753 0.00017775 0.00017796
         0.00017818 0.00017839 0.00017861 0.00017882 0.00017903 0.00017925
         0.00017946 0.00017967 0.00017988 0.0001801 0.00018031 0.00018052 0.00018073
         0.00018094 0.00018115 0.00018136 0.00018158 0.00018179 0.000182 0.00018221
         0.00018242 0.00018263 0.00018284 0.00018305 0.00018325 0.00018346
         0.00018367 0.00018388 0.00018409 0.0001843 0.0001845 0.00018471 0.00018492
         0.00018513 0.00018533 0.00018554 0.00018575 0.00018595 0.00018616
         0.00018636 0.00018657 0.00018678 0.00018698 0.00018719 0.00018739
         0.00018759 0.0001878 0.000188 0.00018821 0.00018841 0.00018861 0.00018882
         0.00018902 0.00018922 0.00018942 0.00018963 0.00018983 0.00019003
         0.00019023 0.00019043 0.00019063 0.00019083 0.00019103 0.00019123
         0.00019143 0.00019163 0.00019183 0.00019203 0.00019223 0.00019243
         0.00019263 0.00019283 0.00019302 0.00019322 0.00019342 0.00019362
         0.00019381 0.00019401 0.00019421 0.0001944 0.0001946 0.0001948 0.00019499
         0.00019519 0.00019538 0.00019558 0.00019577 0.00019596 0.00019616
         0.00019635 0.00019655 0.00019674 0.00019693 0.00019712 0.00019732
         0.00019751 0.0001977 0.00019789 0.00019808 0.00019827 0.00019847 0.00019866
         0.00019885 0.00019904 0.00019923 0.00019942 0.00019961 0.00019979
         0.00019998 0.00020017 0.00020036 0.00020055 0.00020073 0.00020092
         0.00020111 0.0002013 0.00020148 0.00020167 0.00020186 0.00020204 0.00020223
         0.00020241 0.0002026 0.00020278 0.00020297 0.00020315 0.00020333 0.00020352
         0.0002037 0.00020388 0.00020407 0.00020425 0.00020443 0.00020461 0.00020479
         0.00020497 0.00020516 0.00020534 0.00020552 0.0002057 0.00020588 0.00020606
         0.00020624 0.00020641 0.00020659 0.00020677 0.00020695 0.00020713
         0.0002073 0.00020748 0.00020766 0.00020784 0.00020801 0.00020819 0.00020836
         0.00020854 0.00020871 0.00020889 0.00020906 0.00020924 0.00020941
         0.00020959 0.00020976 0.00020993 0.0002101 0.00021028 0.00021045 0.00021062
         0.00021079 0.00021096 0.00021114 0.00021131 0.00021148 0.00021165
         0.00021182 0.00021199 0.00021215 0.00021232 0.00021249 0.00021266
         0.00021283 0.000213 0.00021316 0.00021333 0.0002135 0.00021366 0.00021383
         0.000214 0.00021416 0.00021433 0.00021449 0.00021466 0.00021482 0.00021498
         0.00021515 0.00021531 0.00021547 0.00021564 0.0002158 0.00021596 0.00021612
         0.00021628 0.00021644 0.00021661 0.00021677 0.00021693 0.00021709
         0.00021725 0.0002174 0.00021756 0.00021772 0.00021788 0.00021804 0.0002182
         0.00021835 0.00021851 0.00021867 0.00021882 0.00021898 0.00021913
         0.00021929 0.00021944 0.0002196 0.00021975 0.00021991 0.00022006 0.00022021
         0.00022037 0.00022052 0.00022067 0.00022082 0.00022098 0.00022113
         0.00022128 0.00022143 0.00022158 0.00022173 0.00022188 0.00022203
         0.00022218 0.00022233 0.00022248 0.00022262 0.00022277 0.00022292
         0.00022307 0.00022321 0.00022336 0.0002235 0.00022365 0.0002238 0.00022394
         0.00022409 0.00022423 0.00022437 0.00022452 0.00022466 0.0002248 0.00022495
         0.00022509 0.00022523 0.00022537 0.00022551 0.00022565 0.00022579
         0.00022594 0.00022607 0.00022621 0.00022635 0.00022649 0.00022663
         0.00022677 0.00022691 0.00022704 0.00022718 0.00022732 0.00022746
         0.00022759 0.00022773 0.00022786 0.000228 0.00022813 0.00022827 0.0002284
         0.00022853 0.00022867 0.0002288 0.00022893 0.00022907 0.0002292 0.00022933
         0.00022946 0.00022959 0.00022972 0.00022985 0.00022998 0.00023011
         0.00023024 0.00023037 0.0002305 0.00023063 0.00023075 0.00023088 0.00023101
         0.00023113 0.00023126 0.00023139 0.00023151 0.00023164 0.00023176
         0.00023189 0.00023201 0.00023213 0.00023226 0.00023238 0.0002325 0.00023263
         0.00023275 0.00023287 0.00023299 0.00023311 0.00023323 0.00023335
         0.00023347 0.00023359 0.00023371 0.00023383 0.00023395 0.00023407
         0.00023418 0.0002343 0.00023442 0.00023453 0.00023465 0.00023477 0.00023488
         0.000235 0.00023511 0.00023523 0.00023534 0.00023545 0.00023557 0.00023568
         0.00023579 0.00023591 0.00023602 0.00023613 0.00023624 0.00023635
         0.00023646 0.00023657 0.00023668 0.00023679 0.0002369 0.00023701 0.00023712
         0.00023722 0.00023733 0.00023744 0.00023754 0.00023765 0.00023776
         0.00023786 0.00023797 0.00023807 0.00023818 0.00023828 0.00023838
         0.00023849 0.00023859 0.00023869 0.0002388 0.0002389 0.000239 0.0002391
         0.0002392 0.0002393 0.0002394 0.0002395 0.0002396 0.0002397 0.0002398
         0.0002399 0.00023999 0.00024009 0.00024019 0.00024029 0.00024038 0.00024048
         0.00024057 0.00024067 0.00024076 0.00024086 0.00024095 0.00024105
         0.00024114 0.00024123 0.00024133 0.00024142 0.00024151 0.0002416 0.00024169
         0.00024178 0.00024187 0.00024196 0.00024205 0.00024214 0.00024223
         0.00024232 0.00024241 0.00024249 0.00024258 0.00024267 0.00024276
         0.00024284 0.00024293 0.00024301 0.0002431 0.00024318 0.00024327 0.00024335
         0.00024344 0.00024352 0.0002436 0.00024368 0.00024377 0.00024385 0.00024393
         0.00024401 0.00024409 0.00024417 0.00024425 0.00024433 0.00024441
         0.00024449 0.00024457 0.00024464 0.00024472 0.0002448 0.00024488 0.00024495
         0.00024503 0.0002451 0.00024518 0.00024525 0.00024533 0.0002454 0.00024548
         0.00024555 0.00024562 0.0002457 0.00024577 0.00024584 0.00024591 0.00024598
         0.00024605 0.00024612 0.00024619 0.00024626 0.00024633 0.0002464 0.00024647
         0.00024654 0.00024661 0.00024667 0.00024674 0.00024681 0.00024687
         0.00024694 0.00024701 0.00024707 0.00024714 0.0002472 0.00024726 0.00024733
         0.00024739 0.00024745 0.00024752 0.00024758 0.00024764 0.0002477 0.00024776
         0.00024782 0.00024788 0.00024794 0.000248 0.00024806 0.00024812 0.00024818
         0.00024824 0.0002483 0.00024835 0.00024841 0.00024847 0.00024852 0.00024858
         0.00024863 0.00024869 0.00024874 0.0002488 0.00024885 0.00024891 0.00024896
         0.00024901 0.00024906 0.00024912 0.00024917 0.00024922 0.00024927
         0.00024932 0.00024937 0.00024942 0.00024947 0.00024952 0.00024957
         0.00024962 0.00024966 0.00024971 0.00024976 0.00024981 0.00024985
         0.0002499 0.00024994 0.00024999 0.00025004 0.00025008 0.00025012 0.00025017
         0.00025021 0.00025025 0.0002503 0.00025034 0.00025038 0.00025042 0.00025047
