N = 25000. R = 10. T = 7000
p1 = 0.375. p2 = 0.375q1 = -0.02. q2 = 0.02. h1 = 0.03. h2 = 0.03. Omega = 0.3794

// solution (optimal) with objective 1
// Quality Primal objective                               1.0000000000e+00
// Primal norm |x| (Total, Max)                   6.64469e+00  9.75938e-01
// Primal error (Ax=b) (Total, Max)               1.04853e-14  5.55413e-15
// Primal error (x'Qx+dx=f) (Total, Max)          1.01349e-21  1.01349e-21
// Primal x bound error (Total, Max)              0.00000e+00  0.00000e+00
// Primal slack bound error (Total, Max)          3.10862e-15  3.10862e-15
// Primal quad. slack bound error (Total, Max)    0.00000e+00  0.00000e+00
// Primal normalized error (Ax=b) (Max)           7.63225e-18
// 

y_wbound_U = [1.0402e-8
         1.041e-8 1.0418e-8 1.0427e-8 1.0436e-8 1.0446e-8 1.0457e-8 1.0469e-8
         1.0481e-8 1.0494e-8 1.0508e-8 1.0523e-8 1.0538e-8 1.0554e-8 1.0571e-8
         1.0589e-8 1.0607e-8 1.0626e-8 1.0645e-8 1.0667e-8 1.0692e-8 1.0722e-8
         1.0762e-8 1.0816e-8 1.0893e-8 1.0998e-8 1.1142e-8 1.1332e-8 1.1577e-8
         1.1887e-8 1.2277e-8 1.2774e-8 1.3418e-8 1.4267e-8 1.5381e-8 1.6803e-8
         1.8543e-8 2.057e-8 2.2837e-8 2.5293e-8 2.7898e-8 3.0623e-8 3.3446e-8
         3.6351e-8 3.9326e-8 4.2364e-8 4.5458e-8 4.8605e-8 5.1799e-8 5.504e-8
         5.8324e-8 6.1651e-8 6.5018e-8 6.8424e-8 7.187e-8 7.5353e-8 7.8874e-8
         8.2432e-8 8.6027e-8 8.9658e-8 9.3325e-8 9.7027e-8 1.0077e-7 1.0454e-7
         1.0835e-7 1.1219e-7 1.1607e-7 1.1998e-7 1.2393e-7 1.2791e-7 1.3193e-7
         1.3598e-7 1.4007e-7 1.4419e-7 1.4834e-7 1.5253e-7 1.5675e-7 1.6101e-7
         1.653e-7 1.6963e-7 1.7399e-7 1.7838e-7 1.8281e-7 1.8727e-7 1.9177e-7
         1.963e-7 2.0086e-7 2.0546e-7 2.101e-7 2.1476e-7 2.1946e-7 2.242e-7
         2.2897e-7 2.3377e-7 2.3861e-7 2.4348e-7 2.4839e-7 2.5333e-7 2.583e-7
         2.6331e-7 2.6835e-7 2.7342e-7 2.7853e-7 2.8368e-7 2.8886e-7 2.9407e-7
         2.9932e-7 3.046e-7 3.0991e-7 3.1526e-7 3.2064e-7 3.2606e-7 3.3151e-7
         3.3699e-7 3.4251e-7 3.4807e-7 3.5365e-7 3.5928e-7 3.6493e-7 3.7062e-7
         3.7634e-7 3.821e-7 3.8789e-7 3.9372e-7 3.9958e-7 4.0548e-7 4.114e-7
         4.1737e-7 4.2336e-7 4.2939e-7 4.3546e-7 4.4156e-7 4.4769e-7 4.5386e-7
         4.6006e-7 4.663e-7 4.7257e-7 4.7887e-7 4.8521e-7 4.9158e-7 4.9799e-7
         5.0443e-7 5.1091e-7 5.1741e-7 5.2396e-7 5.3054e-7 5.3715e-7 5.4379e-7
         5.5047e-7 5.5719e-7 5.6394e-7 5.7072e-7 5.7754e-7 5.8439e-7 5.9127e-7
         5.9819e-7 6.0515e-7 6.1214e-7 6.1916e-7 6.2622e-7 6.3331e-7 6.4043e-7
         6.4759e-7 6.5478e-7 6.6201e-7 6.6927e-7 6.7657e-7 6.839e-7 6.9127e-7
         6.9866e-7 7.061e-7 7.1357e-7 7.2107e-7 7.286e-7 7.3617e-7 7.4378e-7
         7.5142e-7 7.5909e-7 7.668e-7 7.7454e-7 7.8231e-7 7.9012e-7 7.9797e-7
         8.0585e-7 8.1376e-7 8.2171e-7 8.2969e-7 8.377e-7 8.4575e-7 8.5384e-7
         8.6195e-7 8.7011e-7 8.7829e-7 8.8651e-7 8.9477e-7 9.0306e-7 9.1138e-7
         9.1974e-7 9.2813e-7 9.3656e-7 9.4502e-7 9.5351e-7 9.6204e-7 9.706e-7
         9.792e-7 9.8783e-7 9.965e-7 0.0000010052 0.0000010139 0.0000010227
         0.0000010315 0.0000010403 0.0000010492 0.0000010581 0.0000010671 0.000001076
         0.000001085 0.0000010941 0.0000011032 0.0000011123 0.0000011214 0.0000011306
         0.0000011398 0.0000011491 0.0000011583 0.0000011677 0.000001177 0.0000011864
         0.0000011958 0.0000012053 0.0000012147 0.0000012243 0.0000012338 0.0000012434
         0.000001253 0.0000012627 0.0000012724 0.0000012821 0.0000012919 0.0000013017
         0.0000013115 0.0000013214 0.0000013313 0.0000013412 0.0000013512 0.0000013612
         0.0000013712 0.0000013813 0.0000013914 0.0000014015 0.0000014117 0.0000014219
         0.0000014321 0.0000014424 0.0000014527 0.000001463 0.0000014734 0.0000014838
         0.0000014942 0.0000015047 0.0000015152 0.0000015258 0.0000015364 0.000001547
         0.0000015576 0.0000015683 0.000001579 0.0000015898 0.0000016005 0.0000016114
         0.0000016222 0.0000016331 0.000001644 0.000001655 0.000001666 0.000001677
         0.000001688 0.0000016991 0.0000017102 0.0000017214 0.0000017326 0.0000017438
         0.0000017551 0.0000017664 0.0000017777 0.000001789 0.0000018004 0.0000018119
         0.0000018233 0.0000018348 0.0000018464 0.0000018579 0.0000018695 0.0000018811
         0.0000018928 0.0000019045 0.0000019162 0.000001928 0.0000019398 0.0000019516
         0.0000019635 0.0000019754 0.0000019873 0.0000019993 0.0000020113 0.0000020234
         0.0000020354 0.0000020475 0.0000020597 0.0000020718 0.000002084 0.0000020963
         0.0000021085 0.0000021209 0.0000021332 0.0000021456 0.000002158 0.0000021704
         0.0000021829 0.0000021954 0.0000022079 0.0000022205 0.0000022331 0.0000022458
         0.0000022584 0.0000022711 0.0000022839 0.0000022967 0.0000023095 0.0000023223
         0.0000023352 0.0000023481 0.000002361 0.000002374 0.000002387 0.0000024001
         0.0000024132 0.0000024263 0.0000024394 0.0000024526 0.0000024658 0.000002479
         0.0000024923 0.0000025056 0.000002519 0.0000025324 0.0000025458 0.0000025592
         0.0000025727 0.0000025862 0.0000025997 0.0000026133 0.0000026269 0.0000026406
         0.0000026543 0.000002668 0.0000026817 0.0000026955 0.0000027093 0.0000027231
         0.000002737 0.0000027509 0.0000027649 0.0000027788 0.0000027929 0.0000028069
         0.000002821 0.0000028351 0.0000028492 0.0000028634 0.0000028776 0.0000028918
         0.0000029061 0.0000029204 0.0000029348 0.0000029491 0.0000029635 0.000002978
         0.0000029924 0.0000030069 0.0000030215 0.0000030361 0.0000030507 0.0000030653
         0.00000308 0.0000030947 0.0000031094 0.0000031242 0.000003139 0.0000031538
         0.0000031687 0.0000031836 0.0000031985 0.0000032134 0.0000032284 0.0000032435
         0.0000032585 0.0000032736 0.0000032888 0.0000033039 0.0000033191 0.0000033343
         0.0000033496 0.0000033649 0.0000033802 0.0000033955 0.0000034109 0.0000034264
         0.0000034418 0.0000034573 0.0000034728 0.0000034884 0.0000035039 0.0000035196
         0.0000035352 0.0000035509 0.0000035666 0.0000035823 0.0000035981 0.0000036139
         0.0000036298 0.0000036456 0.0000036615 0.0000036775 0.0000036934 0.0000037094
         0.0000037255 0.0000037415 0.0000037576 0.0000037738 0.0000037899 0.0000038061
         0.0000038223 0.0000038386 0.0000038549 0.0000038712 0.0000038876 0.000003904
         0.0000039204 0.0000039368 0.0000039533 0.0000039698 0.0000039864 0.0000040029
         0.0000040195 0.0000040362 0.0000040529 0.0000040696 0.0000040863 0.0000041031
         0.0000041199 0.0000041367 0.0000041536 0.0000041705 0.0000041874 0.0000042043
         0.0000042213 0.0000042384 0.0000042554 0.0000042725 0.0000042896 0.0000043068
         0.0000043239 0.0000043412 0.0000043584 0.0000043757 0.000004393 0.0000044103
         0.0000044277 0.0000044451 0.0000044625 0.00000448 0.0000044975 0.000004515
         0.0000045325 0.0000045501 0.0000045678 0.0000045854 0.0000046031 0.0000046208
         0.0000046385 0.0000046563 0.0000046741 0.000004692 0.0000047098 0.0000047277
         0.0000047456 0.0000047636 0.0000047816 0.0000047996 0.0000048177 0.0000048358
         0.0000048539 0.000004872 0.0000048902 0.0000049084 0.0000049266 0.0000049449
         0.0000049632 0.0000049815 0.0000049999 0.0000050183 0.0000050367 0.0000050552
         0.0000050737 0.0000050922 0.0000051107 0.0000051293 0.0000051479 0.0000051665
         0.0000051852 0.0000052039 0.0000052226 0.0000052414 0.0000052602 0.000005279
         0.0000052979 0.0000053167 0.0000053357 0.0000053546 0.0000053736 0.0000053926
         0.0000054116 0.0000054307 0.0000054498 0.0000054689 0.000005488 0.0000055072
         0.0000055264 0.0000055457 0.0000055649 0.0000055842 0.0000056036 0.0000056229
         0.0000056423 0.0000056618 0.0000056812 0.0000057007 0.0000057202 0.0000057397
         0.0000057593 0.0000057789 0.0000057985 0.0000058182 0.0000058379 0.0000058576
         0.0000058774 0.0000058971 0.000005917 0.0000059368 0.0000059567 0.0000059766
         0.0000059965 0.0000060164 0.0000060364 0.0000060565 0.0000060765 0.0000060966
         0.0000061167 0.0000061368 0.000006157 0.0000061772 0.0000061974 0.0000062176
         0.0000062379 0.0000062582 0.0000062786 0.0000062989 0.0000063193 0.0000063398
         0.0000063602 0.0000063807 0.0000064012 0.0000064217 0.0000064423 0.0000064629
         0.0000064835 0.0000065042 0.0000065249 0.0000065456 0.0000065663 0.0000065871
         0.0000066079 0.0000066287 0.0000066496 0.0000066705 0.0000066914 0.0000067123
         0.0000067333 0.0000067543 0.0000067753 0.0000067964 0.0000068175 0.0000068386
         0.0000068597 0.0000068809 0.0000069021 0.0000069233 0.0000069446 0.0000069659
         0.0000069872 0.0000070085 0.0000070299 0.0000070513 0.0000070727 0.0000070942
         0.0000071157 0.0000071372 0.0000071587 0.0000071803 0.0000072019 0.0000072235
         0.0000072451 0.0000072668 0.0000072885 0.0000073103 0.000007332 0.0000073538
         0.0000073756 0.0000073975 0.0000074193 0.0000074412 0.0000074632 0.0000074851
         0.0000075071 0.0000075291 0.0000075512 0.0000075732 0.0000075953 0.0000076174
         0.0000076396 0.0000076618 0.000007684 0.0000077062 0.0000077284 0.0000077507
         0.000007773 0.0000077954 0.0000078177 0.0000078401 0.0000078625 0.000007885
         0.0000079075 0.00000793 0.0000079525 0.000007975 0.0000079976 0.0000080202
         0.0000080429 0.0000080655 0.0000080882 0.0000081109 0.0000081337 0.0000081564
         0.0000081792 0.0000082021 0.0000082249 0.0000082478 0.0000082707 0.0000082936
         0.0000083166 0.0000083395 0.0000083625 0.0000083856 0.0000084086 0.0000084317
         0.0000084548 0.000008478 0.0000085011 0.0000085243 0.0000085475 0.0000085708
         0.0000085941 0.0000086174 0.0000086407 0.000008664 0.0000086874 0.0000087108
         0.0000087342 0.0000087577 0.0000087812 0.0000088047 0.0000088282 0.0000088517
         0.0000088753 0.0000088989 0.0000089226 0.0000089462 0.0000089699 0.0000089936
         0.0000090173 0.0000090411 0.0000090649 0.0000090887 0.0000091125 0.0000091364
         0.0000091603 0.0000091842 0.0000092081 0.0000092321 0.0000092561 0.0000092801
         0.0000093041 0.0000093282 0.0000093523 0.0000093764 0.0000094005 0.0000094247
         0.0000094489 0.0000094731 0.0000094973 0.0000095216 0.0000095459 0.0000095702
         0.0000095945 0.0000096189 0.0000096433 0.0000096677 0.0000096921 0.0000097166
         0.0000097411 0.0000097656 0.0000097901 0.0000098147 0.0000098392 0.0000098638
         0.0000098885 0.0000099131 0.0000099378 0.0000099625 0.0000099872 0.000010012
         0.000010037 0.000010062 0.000010086 0.000010111 0.000010136 0.000010161
         0.000010186 0.000010211 0.000010236 0.000010261 0.000010286 0.000010311
         0.000010336 0.000010361 0.000010386 0.000010411 0.000010436 0.000010462
         0.000010487 0.000010512 0.000010537 0.000010563 0.000010588 0.000010613
         0.000010639 0.000010664 0.000010689 0.000010715 0.00001074 0.000010766
         0.000010791 0.000010817 0.000010842 0.000010868 0.000010893 0.000010919
         0.000010944 0.00001097 0.000010996 0.000011021 0.000011047 0.000011073
         0.000011099 0.000011124 0.00001115 0.000011176 0.000011202 0.000011228
         0.000011254 0.00001128 0.000011306 0.000011332 0.000011358 0.000011384
         0.00001141 0.000011436 0.000011462 0.000011488 0.000011514 0.00001154
         0.000011566 0.000011592 0.000011619 0.000011645 0.000011671 0.000011697
         0.000011724 0.00001175 0.000011776 0.000011803 0.000011829 0.000011855
         0.000011882 0.000011908 0.000011935 0.000011961 0.000011988 0.000012014
         0.000012041 0.000012067 0.000012094 0.000012121 0.000012147 0.000012174
         0.000012201 0.000012227 0.000012254 0.000012281 0.000012307 0.000012334
         0.000012361 0.000012388 0.000012415 0.000012442 0.000012469 0.000012495
         0.000012522 0.000012549 0.000012576 0.000012603 0.00001263 0.000012657
         0.000012684 0.000012711 0.000012739 0.000012766 0.000012793 0.00001282
         0.000012847 0.000012874 0.000012902 0.000012929 0.000012956 0.000012983
         0.000013011 0.000013038 0.000013065 0.000013093 0.00001312 0.000013147
         0.000013175 0.000013202 0.00001323 0.000013257 0.000013285 0.000013312
         0.00001334 0.000013367 0.000013395 0.000013422 0.00001345 0.000013478
         0.000013505 0.000013533 0.000013561 0.000013588 0.000013616 0.000013644
         0.000013672 0.000013699 0.000013727 0.000013755 0.000013783 0.000013811
         0.000013839 0.000013866 0.000013894 0.000013922 0.00001395 0.000013978
         0.000014006 0.000014034 0.000014062 0.00001409 0.000014118 0.000014147
         0.000014175 0.000014203 0.000014231 0.000014259 0.000014287 0.000014315
         0.000014344 0.000014372 0.0000144 0.000014428 0.000014457 0.000014485
         0.000014513 0.000014542 0.00001457 0.000014598 0.000014627 0.000014655
         0.000014684 0.000014712 0.00001474 0.000014769 0.000014797 0.000014826
         0.000014855 0.000014883 0.000014912 0.00001494 0.000014969 0.000014997
         0.000015026 0.000015055 0.000015083 0.000015112 0.000015141 0.00001517
         0.000015198 0.000015227 0.000015256 0.000015285 0.000015313 0.000015342
         0.000015371 0.0000154 0.000015429 0.000015458 0.000015487 0.000015516
         0.000015544 0.000015573 0.000015602 0.000015631 0.00001566 0.000015689
         0.000015718 0.000015748 0.000015777 0.000015806 0.000015835 0.000015864
         0.000015893 0.000015922 0.000015951 0.000015981 0.00001601 0.000016039
         0.000016068 0.000016097 0.000016127 0.000016156 0.000016185 0.000016215
         0.000016244 0.000016273 0.000016303 0.000016332 0.000016361 0.000016391
         0.00001642 0.00001645 0.000016479 0.000016509 0.000016538 0.000016568
         0.000016597 0.000016627 0.000016656 0.000016686 0.000016715 0.000016745
         0.000016774 0.000016804 0.000016834 0.000016863 0.000016893 0.000016923
         0.000016952 0.000016982 0.000017012 0.000017042 0.000017071 0.000017101
         0.000017131 0.000017161 0.00001719 0.00001722 0.00001725 0.00001728
         0.00001731 0.00001734 0.00001737 0.0000174 0.000017429 0.000017459
         0.000017489 0.000017519 0.000017549 0.000017579 0.000017609 0.000017639
         0.000017669 0.000017699 0.000017729 0.000017759 0.00001779 0.00001782
         0.00001785 0.00001788 0.00001791 0.00001794 0.00001797 0.000018 0.000018031
         0.000018061 0.000018091 0.000018121 0.000018152 0.000018182 0.000018212
         0.000018242 0.000018273 0.000018303 0.000018333 0.000018364 0.000018394
         0.000018424 0.000018455 0.000018485 0.000018515 0.000018546 0.000018576
         0.000018607 0.000018637 0.000018668 0.000018698 0.000018729 0.000018759
         0.00001879 0.00001882 0.000018851 0.000018881 0.000018912 0.000018942
         0.000018973 0.000019003 0.000019034 0.000019065 0.000019095 0.000019126
         0.000019157 0.000019187 0.000019218 0.000019249 0.000019279 0.00001931
         0.000019341 0.000019372 0.000019402 0.000019433 0.000019464 0.000019495
         0.000019525 0.000019556 0.000019587 0.000019618 0.000019649 0.000019679
         0.00001971 0.000019741 0.000019772 0.000019803 0.000019834 0.000019865
         0.000019896 0.000019927 0.000019958 0.000019988 0.000020019 0.00002005
         0.000020081 0.000020112 0.000020143 0.000020174 0.000020205 0.000020236
         0.000020267 0.000020299 0.00002033 0.000020361 0.000020392 0.000020423
         0.000020454 0.000020485 0.000020516 0.000020547 0.000020578 0.00002061
         0.000020641 0.000020672 0.000020703 0.000020734 0.000020766 0.000020797
         0.000020828 0.000020859 0.00002089 0.000020922 0.000020953 0.000020984
         0.000021016 0.000021047 0.000021078 0.000021109 0.000021141 0.000021172
         0.000021203 0.000021235 0.000021266 0.000021297 0.000021329 0.00002136
         0.000021392 0.000021423 0.000021454 0.000021486 0.000021517 0.000021549
         0.00002158 0.000021612 0.000021643 0.000021674 0.000021706 0.000021737
         0.000021769 0.0000218 0.000021832 0.000021863 0.000021895 0.000021926
         0.000021958 0.00002199 0.000022021 0.000022053 0.000022084 0.000022116
         0.000022147 0.000022179 0.000022211 0.000022242 0.000022274 0.000022305
         0.000022337 0.000022369 0.0000224 0.000022432 0.000022464 0.000022495
         0.000022527 0.000022559 0.00002259 0.000022622 0.000022654 0.000022685
         0.000022717 0.000022749 0.000022781 0.000022812 0.000022844 0.000022876
         0.000022908 0.000022939 0.000022971 0.000023003 0.000023035 0.000023067
         0.000023098 0.00002313 0.000023162 0.000023194 0.000023226 0.000023257
         0.000023289 0.000023321 0.000023353 0.000023385 0.000023417 0.000023449
         0.00002348 0.000023512 0.000023544 0.000023576 0.000023608 0.00002364
         0.000023672 0.000023704 0.000023736 0.000023768 0.0000238 0.000023832
         0.000023863 0.000023895 0.000023927 0.000023959 0.000023991 0.000024023
         0.000024055 0.000024087 0.000024119 0.000024151 0.000024183 0.000024215
         0.000024247 0.000024279 0.000024311 0.000024343 0.000024375 0.000024407
         0.000024439 0.000024472 0.000024504 0.000024536 0.000024568 0.0000246
         0.000024632 0.000024664 0.000024696 0.000024728 0.00002476 0.000024792
         0.000024824 0.000024857 0.000024889 0.000024921 0.000024953 0.000024985
         0.000025017 0.000025049 0.000025081 0.000025114 0.000025146 0.000025178
         0.00002521 0.000025242 0.000025274 0.000025306 0.000025339 0.000025371
         0.000025403 0.000025435 0.000025467 0.0000255 0.000025532 0.000025564
         0.000025596 0.000025628 0.000025661 0.000025693 0.000025725 0.000025757
         0.000025789 0.000025822 0.000025854 0.000025886 0.000025918 0.000025951
         0.000025983 0.000026015 0.000026047 0.000026079 0.000026112 0.000026144
         0.000026176 0.000026209 0.000026241 0.000026273 0.000026305 0.000026338
         0.00002637 0.000026402 0.000026434 0.000026467 0.000026499 0.000026531
         0.000026564 0.000026596 0.000026628 0.00002666 0.000026693 0.000026725
         0.000026757 0.00002679 0.000026822 0.000026854 0.000026887 0.000026919
         0.000026951 0.000026984 0.000027016 0.000027048 0.00002708 0.000027113
         0.000027145 0.000027177 0.00002721 0.000027242 0.000027274 0.000027307
         0.000027339 0.000027371 0.000027404 0.000027436 0.000027469 0.000027501
         0.000027533 0.000027566 0.000027598 0.00002763 0.000027663 0.000027695
         0.000027727 0.00002776 0.000027792 0.000027824 0.000027857 0.000027889
         0.000027921 0.000027954 0.000027986 0.000028019 0.000028051 0.000028083
         0.000028116 0.000028148 0.00002818 0.000028213 0.000028245 0.000028277
         0.00002831 0.000028342 0.000028375 0.000028407 0.000028439 0.000028472
         0.000028504 0.000028536 0.000028569 0.000028601 0.000028634 0.000028666
         0.000028698 0.000028731 0.000028763 0.000028795 0.000028828 0.00002886
         0.000028893 0.000028925 0.000028957 0.00002899 0.000029022 0.000029054
         0.000029087 0.000029119 0.000029151 0.000029184 0.000029216 0.000029249
         0.000029281 0.000029313 0.000029346 0.000029378 0.00002941 0.000029443
         0.000029475 0.000029507 0.00002954 0.000029572 0.000029605 0.000029637
         0.000029669 0.000029702 0.000029734 0.000029766 0.000029799 0.000029831
         0.000029863 0.000029896 0.000029928 0.00002996 0.000029993 0.000030025
         0.000030057 0.00003009 0.000030122 0.000030154 0.000030187 0.000030219
         0.000030252 0.000030284 0.000030316 0.000030348 0.000030381 0.000030413
         0.000030445 0.000030478 0.00003051 0.000030542 0.000030575 0.000030607
         0.000030639 0.000030672 0.000030704 0.000030736 0.000030769 0.000030801
         0.000030833 0.000030865 0.000030898 0.00003093 0.000030962 0.000030995
